# Energy (kev), Intensity
4.000000000000000083e-02 0.000000000000000000e+00
4.436363636363636065e-01 0.000000000000000000e+00
8.472727272727272885e-01 5.342055432186592626e-304
1.250909090909090970e+00 2.943987131451440622e-110
1.654545454545454541e+00 6.828236167038440822e-51
2.058181818181818112e+00 2.475918839995457454e-27
2.461818181818181905e+00 3.204017151624815097e-16
2.865454545454545254e+00 2.665668072151900172e-10
3.269090909090909047e+00 7.489497782227649883e-07
3.672727272727272840e+00 1.058516662002712320e-04
4.076363636363636189e+00 2.753371769314095618e-03
4.479999999999999538e+00 2.593247701545324871e-02
4.883636363636363775e+00 1.288541215071689339e-01
5.287272727272727124e+00 4.209072959847742768e-01
5.690909090909090473e+00 1.033923150712552586e+00
6.094545454545454710e+00 2.080222137772723023e+00
6.498181818181818059e+00 3.626145776880130178e+00
6.901818181818181408e+00 5.688474952469251278e+00
7.305454545454545645e+00 8.245057260282687039e+00
7.709090909090908994e+00 1.124960843272339162e+01
8.112727272727271455e+00 1.464464543212686287e+01
8.516363636363635692e+00 1.837065378628344448e+01
8.919999999999998153e+00 2.237139989604349566e+01
9.323636363636362390e+00 2.659648657934078031e+01
9.727272727272726627e+00 3.100209321292219400e+01
1.013090909090908909e+01 3.555080745637683037e+01
1.053454545454545332e+01 4.021096597560386243e+01
1.093818181818181756e+01 4.495591834464450187e+01
1.134181818181818002e+01 4.976318610706754697e+01
1.174545454545454426e+01 5.461374629941558823e+01
1.214909090909090850e+01 5.949135388641270339e+01
1.255272727272727096e+01 6.438197012879014380e+01
1.295636363636363519e+01 6.927329186701973640e+01
1.335999999999999943e+01 7.415437029252605328e+01
1.376363636363636189e+01 7.901530580376544322e+01
1.416727272727272613e+01 8.384700584359133302e+01
1.457090909090909037e+01 8.864099394810685340e+01
1.497454545454545283e+01 9.338925992852280444e+01
1.537818181818181706e+01 9.808416610717628714e+01
1.578181818181818130e+01 1.027183181457931624e+02
1.618545454545454376e+01 1.072845283821071263e+02
1.658909090909090622e+01 1.117757379555855692e+02
1.699272727272727224e+01 1.161940690932132867e+02
1.739636363636363470e+01 2.192869904974036217e+03
1.779999999999999716e+01 1.643790962079924611e+02
1.820363636363636317e+01 1.288518088026048929e+02
1.860727272727272563e+01 1.328642039876536387e+02
1.901090909090908809e+01 1.367601911071610914e+02
1.941454545454545411e+01 1.405328680608642173e+02
1.981818181818181657e+01 1.441753098849014805e+02
2.022181818181817903e+01 1.476805275513935669e+02
2.062545454545454504e+01 1.510415410598795347e+02
2.102909090909090750e+01 1.542513524434243664e+02
2.143272727272726996e+01 1.573029038024905901e+02
2.183636363636363598e+01 1.601891091990956397e+02
2.223999999999999844e+01 1.629028547604357300e+02
2.264363636363636090e+01 1.654369990960620953e+02
2.304727272727272691e+01 1.677843739427050309e+02
2.345090909090908937e+01 1.699377849699866374e+02
2.385454545454545183e+01 1.718900126953179779e+02
2.425818181818181785e+01 1.736338134681180918e+02
2.466181818181818031e+01 1.751619204927991404e+02
2.506545454545454277e+01 1.764670448672777638e+02
2.546909090909090878e+01 1.775418766195130047e+02
2.587272727272727124e+01 1.783790857290709653e+02
2.627636363636363370e+01 1.789713231242375286e+02
2.667999999999999972e+01 1.793112216479452741e+02
2.708363636363636218e+01 1.793913969879170054e+02
2.748727272727272464e+01 1.792044485680779644e+02
2.789090909090909065e+01 1.787429603995617811e+02
2.829454545454545311e+01 1.779995018906028861e+02
2.869818181818181557e+01 1.769666286153415626e+02
2.910181818181818159e+01 1.756368830421139080e+02
2.950545454545454405e+01 1.740027952221980740e+02
2.990909090909090651e+01 1.720568834402737082e+02
3.031272727272727252e+01 1.697916942085392691e+02
3.071636363636363498e+01 1.671996900802068069e+02
3.111999999999999744e+01 1.642733445555741127e+02
3.152363636363636346e+01 1.610051342360975184e+02
3.192727272727272592e+01 1.573875268647583425e+02
3.233090909090908838e+01 1.534129817778002121e+02
3.273454545454545439e+01 1.490739503300622459e+02
3.313818181818181330e+01 1.443628762953916009e+02
3.354181818181817931e+01 1.392721962435736600e+02
3.394545454545454533e+01 1.337943398951569236e+02
3.434909090909090423e+01 1.279217304554923516e+02
3.475272727272727025e+01 1.216467849292413632e+02
3.515636363636363626e+01 1.149619144165455680e+02
3.555999999999999517e+01 1.078595243919830580e+02
3.596363636363636118e+01 1.003320149673756987e+02
3.636727272727272720e+01 9.237178113945222435e+01
3.677090909090908610e+01 8.397121302330711501e+01
3.717454545454545212e+01 7.512269607254272330e+01
3.757818181818181813e+01 6.581861128692665375e+01
3.798181818181817704e+01 5.605133540834312100e+01
3.838545454545454305e+01 4.581324110576713338e+01
3.878909090909090907e+01 3.509669714994907963e+01
3.919272727272726797e+01 2.389406857844511478e+01
3.959636363636363399e+01 1.219771685159391339e+01
4.000000000000000000e+01 0.000000000000000000e+00
